SampleIdent,12Lab22   09-Jan-23 13:23,/
  10.000        39
  10.020        41
  10.040        35
  10.060        44
  10.080        52
  10.100        47
  10.120        40
  10.140        34
  10.160        49
  10.180        37
  10.200        36
  10.220        42
  10.240        34
  10.260        47
  10.280        49
  10.300        34
  10.320        47
  10.340        44
  10.360        26
  10.380        46
  10.400        49
  10.420        30
  10.440        48
  10.460        41
  10.480        43
  10.500        48
  10.520        54
  10.540        49
  10.560        47
  10.580        42
  10.600        42
  10.620        49
  10.640        45
  10.660        40
  10.680        43
  10.700        40
  10.720        37
  10.740        54
  10.760        63
  10.780        41
  10.800        48
  10.820        52
  10.840        37
  10.860        40
  10.880        37
  10.900        42
  10.920        39
  10.940        46
  10.960        37
  10.980        43
  11.000        60
  11.020        36
  11.040        40
  11.060        39
  11.080        41
  11.100        43
  11.120        44
  11.140        58
  11.160        40
  11.180        50
  11.200        39
  11.220        41
  11.240        53
  11.260        47
  11.280        49
  11.300        52
  11.320        36
  11.340        30
  11.360        49
  11.380        45
  11.400        57
  11.420        45
  11.440        43
  11.460        51
  11.480        42
  11.500        38
  11.520        38
  11.540        51
  11.560        45
  11.580        49
  11.600        52
  11.620        56
  11.640        54
  11.660        37
  11.680        45
  11.700        44
  11.720        43
  11.740        45
  11.760        47
  11.780        49
  11.800        47
  11.820        52
  11.840        41
  11.860        39
  11.880        40
  11.900        46
  11.920        39
  11.940        41
  11.960        41
  11.980        52
  12.000        51
  12.020        46
  12.040        33
  12.060        42
  12.080        36
  12.100        44
  12.120        55
  12.140        48
  12.160        42
  12.180        45
  12.200        57
  12.220        37
  12.240        40
  12.260        42
  12.280        45
  12.300        39
  12.320        47
  12.340        48
  12.360        46
  12.380        49
  12.400        46
  12.420        57
  12.440        41
  12.460        44
  12.480        43
  12.500        45
  12.520        46
  12.540        46
  12.560        46
  12.580        38
  12.600        50
  12.620        39
  12.640        44
  12.660        38
  12.680        38
  12.700        46
  12.720        34
  12.740        48
  12.760        42
  12.780        45
  12.800        38
  12.820        40
  12.840        30
  12.860        44
  12.880        28
  12.900        33
  12.920        40
  12.940        51
  12.960        35
  12.980        42
  13.000        43
  13.020        40
  13.040        35
  13.060        39
  13.080        38
  13.100        43
  13.120        48
  13.140        44
  13.160        42
  13.180        41
  13.200        42
  13.220        30
  13.240        35
  13.260        30
  13.280        29
  13.300        36
  13.320        36
  13.340        41
  13.360        44
  13.380        44
  13.400        38
  13.420        38
  13.440        33
  13.460        41
  13.480        31
  13.500        38
  13.520        42
  13.540        42
  13.560        38
  13.580        34
  13.600        46
  13.620        43
  13.640        29
  13.660        41
  13.680        41
  13.700        29
  13.720        48
  13.740        43
  13.760        43
  13.780        31
  13.800        35
  13.820        37
  13.840        36
  13.860        21
  13.880        38
  13.900        40
  13.920        39
  13.940        31
  13.960        41
  13.980        45
  14.000        35
  14.020        48
  14.040        44
  14.060        45
  14.080        37
  14.100        45
  14.120        48
  14.140        53
  14.160        30
  14.180        38
  14.200        40
  14.220        32
  14.240        40
  14.260        26
  14.280        41
  14.300        44
  14.320        26
  14.340        43
  14.360        36
  14.380        48
  14.400        36
  14.420        39
  14.440        46
  14.460        42
  14.480        42
  14.500        34
  14.520        43
  14.540        45
  14.560        36
  14.580        36
  14.600        25
  14.620        38
  14.640        38
  14.660        20
  14.680        35
  14.700        37
  14.720        32
  14.740        29
  14.760        53
  14.780        41
  14.800        56
  14.820        26
  14.840        35
  14.860        26
  14.880        47
  14.900        22
  14.920        28
  14.940        32
  14.960        39
  14.980        29
  15.000        31
  15.020        33
  15.040        26
  15.060        24
  15.080        37
  15.100        34
  15.120        28
  15.140        26
  15.160        28
  15.180        44
  15.200        31
  15.220        32
  15.240        30
  15.260        22
  15.280        33
  15.300        41
  15.320        22
  15.340        31
  15.360        36
  15.380        24
  15.400        30
  15.420        30
  15.440        39
  15.460        42
  15.480        29
  15.500        36
  15.520        34
  15.540        30
  15.560        38
  15.580        37
  15.600        38
  15.620        29
  15.640        30
  15.660        31
  15.680        30
  15.700        44
  15.720        26
  15.740        47
  15.760        44
  15.780        34
  15.800        37
  15.820        35
  15.840        34
  15.860        41
  15.880        36
  15.900        33
  15.920        41
  15.940        34
  15.960        42
  15.980        31
  16.000        28
  16.020        43
  16.040        51
  16.060        36
  16.080        47
  16.100        54
  16.120        39
  16.140        33
  16.160        46
  16.180        38
  16.200        34
  16.220        39
  16.240        47
  16.260        41
  16.280        48
  16.300        42
  16.320        44
  16.340        39
  16.360        62
  16.380        63
  16.400        56
  16.420        62
  16.440        68
  16.460        52
  16.480        66
  16.500        64
  16.520        64
  16.540        73
  16.560        69
  16.580        56
  16.600        62
  16.620        57
  16.640        54
  16.660        69
  16.680        57
  16.700        61
  16.720        56
  16.740        49
  16.760        55
  16.780        55
  16.800        43
  16.820        41
  16.840        33
  16.860        52
  16.880        36
  16.900        51
  16.920        39
  16.940        31
  16.960        47
  16.980        34
  17.000        50
  17.020        28
  17.040        44
  17.060        31
  17.080        34
  17.100        36
  17.120        37
  17.140        27
  17.160        43
  17.180        32
  17.200        28
  17.220        42
  17.240        35
  17.260        35
  17.280        33
  17.300        34
  17.320        33
  17.340        23
  17.360        36
  17.380        39
  17.400        25
  17.420        35
  17.440        30
  17.460        36
  17.480        30
  17.500        25
  17.520        28
  17.540        33
  17.560        32
  17.580        37
  17.600        30
  17.620        39
  17.640        31
  17.660        24
  17.680        31
  17.700        29
  17.720        36
  17.740        27
  17.760        35
  17.780        33
  17.800        34
  17.820        42
  17.840        29
  17.860        52
  17.880        46
  17.900        29
  17.920        40
  17.940        36
  17.960        34
  17.980        29
  18.000        45
  18.020        42
  18.040        37
  18.060        31
  18.080        42
  18.100        44
  18.120        31
  18.140        46
  18.160        34
  18.180        31
  18.200        39
  18.220        48
  18.240        22
  18.260        42
  18.280        33
  18.300        36
  18.320        34
  18.340        40
  18.360        32
  18.380        33
  18.400        35
  18.420        29
  18.440        31
  18.460        37
  18.480        35
  18.500        25
  18.520        24
  18.540        31
  18.560        38
  18.580        25
  18.600        37
  18.620        28
  18.640        32
  18.660        33
  18.680        29
  18.700        37
  18.720        26
  18.740        26
  18.760        36
  18.780        26
  18.800        30
  18.820        45
  18.840        22
  18.860        31
  18.880        41
  18.900        26
  18.920        21
  18.940        44
  18.960        32
  18.980        25
  19.000        37
  19.020        38
  19.040        31
  19.060        35
  19.080        34
  19.100        27
  19.120        30
  19.140        37
  19.160        35
  19.180        35
  19.200        35
  19.220        27
  19.240        30
  19.260        39
  19.280        28
  19.300        36
  19.320        28
  19.340        22
  19.360        24
  19.380        26
  19.400        36
  19.420        36
  19.440        23
  19.460        26
  19.480        29
  19.500        31
  19.520        31
  19.540        32
  19.560        36
  19.580        22
  19.600        36
  19.620        37
  19.640        29
  19.660        34
  19.680        33
  19.700        32
  19.720        23
  19.740        29
  19.760        38
  19.780        39
  19.800        33
  19.820        35
  19.840        33
  19.860        41
  19.880        34
  19.900        34
  19.920        37
  19.940        25
  19.960        31
  19.980        29
  20.000        32
  20.020        35
  20.040        35
  20.060        39
  20.080        24
  20.100        28
  20.120        28
  20.140        29
  20.160        38
  20.180        26
  20.200        25
  20.220        29
  20.240        49
  20.260        35
  20.280        35
  20.300        32
  20.320        35
  20.340        24
  20.360        31
  20.380        21
  20.400        24
  20.420        35
  20.440        22
  20.460        35
  20.480        27
  20.500        29
  20.520        28
  20.540        32
  20.560        26
  20.580        29
  20.600        30
  20.620        23
  20.640        36
  20.660        28
  20.680        23
  20.700        30
  20.720        33
  20.740        25
  20.760        28
  20.780        28
  20.800        27
  20.820        28
  20.840        31
  20.860        32
  20.880        27
  20.900        31
  20.920        23
  20.940        30
  20.960        25
  20.980        21
  21.000        40
  21.020        31
  21.040        33
  21.060        28
  21.080        41
  21.100        24
  21.120        30
  21.140        33
  21.160        22
  21.180        28
  21.200        20
  21.220        29
  21.240        26
  21.260        31
  21.280        26
  21.300        40
  21.320        24
  21.340        26
  21.360        24
  21.380        21
  21.400        30
  21.420        33
  21.440        27
  21.460        24
  21.480        26
  21.500        24
  21.520        25
  21.540        36
  21.560        22
  21.580        33
  21.600        19
  21.620        29
  21.640        26
  21.660        27
  21.680        30
  21.700        48
  21.720        29
  21.740        32
  21.760        33
  21.780        27
  21.800        28
  21.820        34
  21.840        31
  21.860        22
  21.880        30
  21.900        22
  21.920        35
  21.940        25
  21.960        16
  21.980        28
  22.000        26
  22.020        19
  22.040        28
  22.060        28
  22.080        26
  22.100        29
  22.120        30
  22.140        25
  22.160        29
  22.180        24
  22.200        33
  22.220        28
  22.240        28
  22.260        28
  22.280        26
  22.300        26
  22.320        30
  22.340        30
  22.360        31
  22.380        19
  22.400        27
  22.420        25
  22.440        24
  22.460        34
  22.480        31
  22.500        28
  22.520        23
  22.540        43
  22.560        28
  22.580        32
  22.600        31
  22.620        30
  22.640        27
  22.660        30
  22.680        36
  22.700        38
  22.720        23
  22.740        31
  22.760        34
  22.780        36
  22.800        30
  22.820        40
  22.840        25
  22.860        35
  22.880        32
  22.900        31
  22.920        35
  22.940        44
  22.960        36
  22.980        40
  23.000        28
  23.020        31
  23.040        38
  23.060        46
  23.080        44
  23.100        45
  23.120        58
  23.140        41
  23.160        45
  23.180        50
  23.200        61
  23.220        45
  23.240        44
  23.260        36
  23.280        44
  23.300        48
  23.320        38
  23.340        48
  23.360        40
  23.380        38
  23.400        40
  23.420        35
  23.440        26
  23.460        33
  23.480        35
  23.500        30
  23.520        29
  23.540        29
  23.560        41
  23.580        40
  23.600        35
  23.620        36
  23.640        39
  23.660        36
  23.680        34
  23.700        45
  23.720        37
  23.740        32
  23.760        38
  23.780        36
  23.800        46
  23.820        48
  23.840        28
  23.860        40
  23.880        41
  23.900        39
  23.920        49
  23.940        42
  23.960        33
  23.980        44
  24.000        46
  24.020        40
  24.040        51
  24.060        44
  24.080        43
  24.100        33
  24.120        44
  24.140        48
  24.160        36
  24.180        55
  24.200        46
  24.220        43
  24.240        62
  24.260        35
  24.280        37
  24.300        50
  24.320        36
  24.340        64
  24.360        42
  24.380        58
  24.400        47
  24.420        53
  24.440        46
  24.460        46
  24.480        31
  24.500        34
  24.520        37
  24.540        39
  24.560        35
  24.580        38
  24.600        53
  24.620        47
  24.640        38
  24.660        45
  24.680        45
  24.700        29
  24.720        49
  24.740        35
  24.760        40
  24.780        45
  24.800        19
  24.820        29
  24.840        29
  24.860        43
  24.880        43
  24.900        29
  24.920        53
  24.940        57
  24.960        40
  24.980        60
  25.000        40
  25.020        44
  25.040        45
  25.060        46
  25.080        46
  25.100        39
  25.120        44
  25.140        47
  25.160        47
  25.180        38
  25.200        62
  25.220        47
  25.240        64
  25.260        73
  25.280        63
  25.300        69
  25.320        71
  25.340        95
  25.360        89
  25.380       112
  25.400        96
  25.420       119
  25.440       160
  25.460       163
  25.480       186
  25.500       197
  25.520       261
  25.540       301
  25.560       316
  25.580       364
  25.600       414
  25.620       405
  25.640       414
  25.660       389
  25.680       370
  25.700       345
  25.720       320
  25.740       281
  25.760       238
  25.780       188
  25.800       210
  25.820       159
  25.840       159
  25.860       139
  25.880       105
  25.900        73
  25.920        82
  25.940        70
  25.960        53
  25.980        42
  26.000        52
  26.020        47
  26.040        46
  26.060        40
  26.080        46
  26.100        44
  26.120        42
  26.140        47
  26.160        33
  26.180        36
  26.200        34
  26.220        43
  26.240        33
  26.260        33
  26.280        37
  26.300        32
  26.320        28
  26.340        49
  26.360        36
  26.380        49
  26.400        35
  26.420        38
  26.440        37
  26.460        36
  26.480        31
  26.500        20
  26.520        35
  26.540        26
  26.560        35
  26.580        31
  26.600        28
  26.620        33
  26.640        27
  26.660        33
  26.680        28
  26.700        25
  26.720        29
  26.740        37
  26.760        32
  26.780        20
  26.800        39
  26.820        43
  26.840        33
  26.860        28
  26.880        28
  26.900        38
  26.920        39
  26.940        41
  26.960        37
  26.980        41
  27.000        38
  27.020        33
  27.040        32
  27.060        29
  27.080        34
  27.100        42
  27.120        36
  27.140        32
  27.160        35
  27.180        37
  27.200        42
  27.220        32
  27.240        42
  27.260        39
  27.280        35
  27.300        31
  27.320        37
  27.340        33
  27.360        29
  27.380        26
  27.400        30
  27.420        37
  27.440        24
  27.460        37
  27.480        34
  27.500        32
  27.520        33
  27.540        24
  27.560        40
  27.580        28
  27.600        26
  27.620        27
  27.640        35
  27.660        38
  27.680        28
  27.700        23
  27.720        35
  27.740        33
  27.760        27
  27.780        36
  27.800        35
  27.820        38
  27.840        38
  27.860        26
  27.880        27
  27.900        46
  27.920        37
  27.940        50
  27.960        30
  27.980        53
  28.000        45
  28.020        46
  28.040        46
  28.060        55
  28.080        40
  28.100        53
  28.120        33
  28.140        56
  28.160        57
  28.180        49
  28.200        53
  28.220        55
  28.240        45
  28.260        44
  28.280        44
  28.300        50
  28.320        44
  28.340        34
  28.360        54
  28.380        41
  28.400        41
  28.420        56
  28.440        40
  28.460        31
  28.480        32
  28.500        40
  28.520        44
  28.540        18
  28.560        33
  28.580        36
  28.600        45
  28.620        30
  28.640        27
  28.660        23
  28.680        30
  28.700        34
  28.720        25
  28.740        28
  28.760        23
  28.780        31
  28.800        31
  28.820        27
  28.840        39
  28.860        29
  28.880        24
  28.900        26
  28.920        21
  28.940        33
  28.960        25
  28.980        27
  29.000        22
  29.020        25
  29.040        39
  29.060        25
  29.080        36
  29.100        33
  29.120        24
  29.140        24
  29.160        26
  29.180        32
  29.200        31
  29.220        27
  29.240        35
  29.260        36
  29.280        31
  29.300        24
  29.320        20
  29.340        32
  29.360        22
  29.380        28
  29.400        32
  29.420        19
  29.440        14
  29.460        24
  29.480        24
  29.500        26
  29.520        23
  29.540        23
  29.560        29
  29.580        21
  29.600        26
  29.620        26
  29.640        24
  29.660        29
  29.680        28
  29.700        30
  29.720        30
  29.740        23
  29.760        22
  29.780        35
  29.800        22
  29.820        28
  29.840        27
  29.860        24
  29.880        27
  29.900        21
  29.920        29
  29.940        17
  29.960        30
  29.980        28
  30.000        32
  30.020        32
  30.040        27
  30.060        32
  30.080        22
  30.100        25
  30.120        23
  30.140        18
  30.160        26
  30.180        33
  30.200        33
  30.220        28
  30.240        22
  30.260        22
  30.280        29
  30.300        37
  30.320        30
  30.340        25
  30.360        27
  30.380        31
  30.400        26
  30.420        34
  30.440        32
  30.460        37
  30.480        38
  30.500        27
  30.520        25
  30.540        32
  30.560        31
  30.580        28
  30.600        30
  30.620        24
  30.640        19
  30.660        21
  30.680        27
  30.700        37
  30.720        20
  30.740        17
  30.760        24
  30.780        33
  30.800        29
  30.820        23
  30.840        23
  30.860        25
  30.880        21
  30.900        28
  30.920        30
  30.940        24
  30.960        21
  30.980        33
  31.000        32
  31.020        24
  31.040        26
  31.060        25
  31.080        19
  31.100        21
  31.120        37
  31.140        35
  31.160        24
  31.180        31
  31.200        21
  31.220        23
  31.240        25
  31.260        20
  31.280        21
  31.300        23
  31.320        27
  31.340        24
  31.360        24
  31.380        20
  31.400        25
  31.420        22
  31.440        23
  31.460        27
  31.480        30
  31.500        28
  31.520        24
  31.540        25
  31.560        18
  31.580        29
  31.600        26
  31.620        17
  31.640        22
  31.660        27
  31.680        26
  31.700        23
  31.720        21
  31.740        24
  31.760        23
  31.780        31
  31.800        27
  31.820        30
  31.840        20
  31.860        31
  31.880        21
  31.900        26
  31.920        34
  31.940        21
  31.960        28
  31.980        29
  32.000        31
  32.020        28
  32.040        12
  32.060        17
  32.080        19
  32.100        17
  32.120        28
  32.140        18
  32.160        29
  32.180        35
  32.200        19
  32.220        32
  32.240        24
  32.260        32
  32.280        28
  32.300        25
  32.320        28
  32.340        31
  32.360        20
  32.380        28
  32.400        29
  32.420        30
  32.440        22
  32.460        32
  32.480        27
  32.500        22
  32.520        25
  32.540        18
  32.560        22
  32.580        33
  32.600        24
  32.620        24
  32.640        20
  32.660        19
  32.680        19
  32.700        21
  32.720        29
  32.740        17
  32.760        30
  32.780        27
  32.800        23
  32.820        18
  32.840        24
  32.860        29
  32.880        25
  32.900        21
  32.920        32
  32.940        27
  32.960        30
  32.980        17
  33.000        28
  33.020        25
  33.040        28
  33.060        17
  33.080        19
  33.100        39
  33.120        25
  33.140        29
  33.160        18
  33.180        25
  33.200        34
  33.220        30
  33.240        28
  33.260        29
  33.280        25
  33.300        26
  33.320        22
  33.340        35
  33.360        30
  33.380        35
  33.400        27
  33.420        33
  33.440        34
  33.460        34
  33.480        44
  33.500        39
  33.520        32
  33.540        36
  33.560        27
  33.580        45
  33.600        27
  33.620        32
  33.640        32
  33.660        39
  33.680        28
  33.700        38
  33.720        36
  33.740        49
  33.760        38
  33.780        28
  33.800        28
  33.820        38
  33.840        39
  33.860        32
  33.880        36
  33.900        30
  33.920        35
  33.940        40
  33.960        36
  33.980        34
  34.000        45
  34.020        32
  34.040        38
  34.060        47
  34.080        43
  34.100        55
  34.120        61
  34.140        47
  34.160        64
  34.180        56
  34.200        50
  34.220        44
  34.240        45
  34.260        43
  34.280        49
  34.300        49
  34.320        43
  34.340        50
  34.360        48
  34.380        41
  34.400        38
  34.420        32
  34.440        27
  34.460        33
  34.480        37
  34.500        41
  34.520        25
  34.540        31
  34.560        38
  34.580        45
  34.600        32
  34.620        47
  34.640        43
  34.660        53
  34.680        38
  34.700        60
  34.720        57
  34.740        68
  34.760        61
  34.780        69
  34.800        65
  34.820        55
  34.840        64
  34.860        71
  34.880        85
  34.900       100
  34.920        94
  34.940        95
  34.960       105
  34.980       132
  35.000       119
  35.020       118
  35.040       139
  35.060       175
  35.080       161
  35.100       210
  35.120       267
  35.140       295
  35.160       371
  35.180       364
  35.200       412
  35.220       425
  35.240       392
  35.260       360
  35.280       322
  35.300       284
  35.320       216
  35.340       190
  35.360       170
  35.380       141
  35.400       127
  35.420        90
  35.440        70
  35.460        72
  35.480        63
  35.500        57
  35.520        44
  35.540        44
  35.560        41
  35.580        40
  35.600        42
  35.620        38
  35.640        30
  35.660        41
  35.680        37
  35.700        22
  35.720        33
  35.740        40
  35.760        31
  35.780        41
  35.800        38
  35.820        38
  35.840        28
  35.860        35
  35.880        47
  35.900        35
  35.920        28
  35.940        40
  35.960        19
  35.980        30
  36.000        23
  36.020        23
  36.040        32
  36.060        23
  36.080        25
  36.100        37
  36.120        31
  36.140        28
  36.160        30
  36.180        33
  36.200        35
  36.220        55
  36.240        32
  36.260        30
  36.280        32
  36.300        44
  36.320        39
  36.340        35
  36.360        31
  36.380        36
  36.400        31
  36.420        24
  36.440        34
  36.460        39
  36.480        25
  36.500        34
  36.520        46
  36.540        24
  36.560        31
  36.580        42
  36.600        38
  36.620        27
  36.640        41
  36.660        42
  36.680        46
  36.700        42
  36.720        38
  36.740        43
  36.760        53
  36.780        54
  36.800        42
  36.820        45
  36.840        42
  36.860        54
  36.880        48
  36.900        47
  36.920        47
  36.940        57
  36.960        45
  36.980        42
  37.000        39
  37.020        42
  37.040        49
  37.060        52
  37.080        47
  37.100        40
  37.120        41
  37.140        45
  37.160        54
  37.180        45
  37.200        46
  37.220        45
  37.240        30
  37.260        42
  37.280        31
  37.300        35
  37.320        38
  37.340        43
  37.360        37
  37.380        21
  37.400        36
  37.420        30
  37.440        47
  37.460        38
  37.480        52
  37.500        42
  37.520        54
  37.540        43
  37.560        48
  37.580        62
  37.600        63
  37.620        58
  37.640        70
  37.660        75
  37.680        74
  37.700        84
  37.720        99
  37.740       127
  37.760       131
  37.780       156
  37.800       185
  37.820       181
  37.840       168
  37.860       171
  37.880       161
  37.900       158
  37.920       148
  37.940       137
  37.960       109
  37.980        99
  38.000        99
  38.020        82
  38.040        66
  38.060        50
  38.080        50
  38.100        64
  38.120        57
  38.140        50
  38.160        41
  38.180        39
  38.200        44
  38.220        53
  38.240        42
  38.260        36
  38.280        51
  38.300        31
  38.320        45
  38.340        46
  38.360        26
  38.380        35
  38.400        35
  38.420        47
  38.440        35
  38.460        53
  38.480        44
  38.500        35
  38.520        42
  38.540        33
  38.560        50
  38.580        42
  38.600        39
  38.620        34
  38.640        44
  38.660        56
  38.680        50
  38.700        44
  38.720        38
  38.740        54
  38.760        40
  38.780        40
  38.800        46
  38.820        36
  38.840        47
  38.860        36
  38.880        46
  38.900        53
  38.920        46
  38.940        35
  38.960        39
  38.980        59
  39.000        53
  39.020        54
  39.040        51
  39.060        37
  39.080        36
  39.100        49
  39.120        43
  39.140        43
  39.160        51
  39.180        41
  39.200        46
  39.220        49
  39.240        38
  39.260        58
  39.280        61
  39.300        47
  39.320        68
  39.340        55
  39.360        55
  39.380        61
  39.400        51
  39.420        59
  39.440        57
  39.460        57
  39.480        60
  39.500        70
  39.520        69
  39.540        64
  39.560        80
  39.580        79
  39.600        88
  39.620        75
  39.640        71
  39.660        80
  39.680        77
  39.700        97
  39.720        96
  39.740       101
  39.760       104
  39.780       110
  39.800       126
  39.820       141
  39.840       146
  39.860       154
  39.880       187
  39.900       185
  39.920       225
  39.940       253
  39.960       307
  39.980       339
  40.000       390
  40.020       379
  40.040       501
  40.060       598
  40.080       743
  40.100       935
  40.120      1102
  40.140      1378
  40.160      1673
  40.180      2167
  40.200      2668
  40.220      3397
  40.240      4012
  40.260      4525
  40.280      5278
  40.300      5497
  40.320      5544
  40.340      5152
  40.360      4689
  40.380      4320
  40.400      3795
  40.420      3376
  40.440      2898
  40.460      2310
  40.480      1857
  40.500      1377
  40.520      1135
  40.540       902
  40.560       733
  40.580       575
  40.600       503
  40.620       428
  40.640       364
  40.660       314
  40.680       233
  40.700       213
  40.720       182
  40.740       191
  40.760       149
  40.780       140
  40.800       130
  40.820       129
  40.840       127
  40.860        85
  40.880        85
  40.900        90
  40.920        78
  40.940        64
  40.960        65
  40.980        72
  41.000        54
  41.020        60
  41.040        69
  41.060        55
  41.080        54
  41.100        51
  41.120        49
  41.140        55
  41.160        46
  41.180        65
  41.200        54
  41.220        54
  41.240        41
  41.260        43
  41.280        44
  41.300        38
  41.320        32
  41.340        47
  41.360        42
  41.380        33
  41.400        32
  41.420        42
  41.440        30
  41.460        28
  41.480        43
  41.500        34
  41.520        25
  41.540        28
  41.560        32
  41.580        34
  41.600        38
  41.620        37
  41.640        29
  41.660        41
  41.680        36
  41.700        37
  41.720        23
  41.740        40
  41.760        39
  41.780        26
  41.800        31
  41.820        39
  41.840        36
  41.860        26
  41.880        27
  41.900        37
  41.920        30
  41.940        37
  41.960        30
  41.980        24
  42.000        21
  42.020        31
  42.040        26
  42.060        26
  42.080        31
  42.100        23
  42.120        26
  42.140        29
  42.160        34
  42.180        28
  42.200        28
  42.220        24
  42.240        22
  42.260        33
  42.280        30
  42.300        27
  42.320        23
  42.340        26
  42.360        31
  42.380        26
  42.400        23
  42.420        24
  42.440        36
  42.460        19
  42.480        29
  42.500        24
  42.520        28
  42.540        34
  42.560        37
  42.580        28
  42.600        33
  42.620        28
  42.640        31
  42.660        30
  42.680        34
  42.700        38
  42.720        25
  42.740        24
  42.760        38
  42.780        31
  42.800        33
  42.820        27
  42.840        28
  42.860        43
  42.880        35
  42.900        30
  42.920        32
  42.940        44
  42.960        40
  42.980        42
  43.000        32
  43.020        42
  43.040        47
  43.060        48
  43.080        54
  43.100        49
  43.120        63
  43.140        62
  43.160        78
  43.180        93
  43.200        85
  43.220       106
  43.240       113
  43.260       146
  43.280       177
  43.300       220
  43.320       255
  43.340       279
  43.360       343
  43.380       378
  43.400       373
  43.420       401
  43.440       334
  43.460       376
  43.480       341
  43.500       283
  43.520       280
  43.540       238
  43.560       201
  43.580       170
  43.600       131
  43.620       117
  43.640       107
  43.660        88
  43.680        76
  43.700        75
  43.720        75
  43.740        59
  43.760        49
  43.780        58
  43.800        41
  43.820        40
  43.840        41
  43.860        37
  43.880        41
  43.900        39
  43.920        33
  43.940        30
  43.960        31
  43.980        32
  44.000        47
  44.020        32
  44.040        27
  44.060        33
  44.080        26
  44.100        26
  44.120        30
  44.140        30
  44.160        22
  44.180        28
  44.200        26
  44.220        20
  44.240        27
  44.260        16
  44.280        23
  44.300        23
  44.320        26
  44.340        26
  44.360        27
  44.380        26
  44.400        22
  44.420        28
  44.440        21
  44.460        27
  44.480        32
  44.500        13
  44.520        28
  44.540        42
  44.560        24
  44.580        23
  44.600        26
  44.620        24
  44.640        30
  44.660        30
  44.680        26
  44.700        27
  44.720        23
  44.740        30
  44.760        18
  44.780        22
  44.800        22
  44.820        23
  44.840        29
  44.860        27
  44.880        21
  44.900        25
  44.920        13
  44.940        31
  44.960        18
  44.980        13
  45.000        25
  45.020        27
  45.040        22
  45.060        19
  45.080        27
  45.100        15
  45.120        32
  45.140        18
  45.160        26
  45.180        18
  45.200        25
  45.220        31
  45.240        17
  45.260        20
  45.280        24
  45.300        23
  45.320        23
  45.340        27
  45.360        22
  45.380        26
  45.400        22
  45.420        17
  45.440        24
  45.460        14
  45.480        17
  45.500        24
  45.520        31
  45.540        23
  45.560        27
  45.580        24
  45.600        21
  45.620        20
  45.640        26
  45.660        19
  45.680        31
  45.700        28
  45.720        26
  45.740        29
  45.760        20
  45.780        31
  45.800        22
  45.820        19
  45.840        26
  45.860        29
  45.880        24
  45.900        25
  45.920        24
  45.940        28
  45.960        24
  45.980        30
  46.000        28
  46.020        27
  46.040        28
  46.060        19
  46.080        29
  46.100        26
  46.120        28
  46.140        30
  46.160        32
  46.180        40
  46.200        25
  46.220        26
  46.240        33
  46.260        42
  46.280        29
  46.300        25
  46.320        27
  46.340        35
  46.360        28
  46.380        36
  46.400        40
  46.420        24
  46.440        33
  46.460        32
  46.480        28
  46.500        18
  46.520        32
  46.540        33
  46.560        29
  46.580        30
  46.600        29
  46.620        24
  46.640        27
  46.660        24
  46.680        25
  46.700        27
  46.720        28
  46.740        22
  46.760        25
  46.780        25
  46.800        19
  46.820        28
  46.840        18
  46.860        30
  46.880        21
  46.900        15
  46.920        27
  46.940        27
  46.960        26
  46.980        13
  47.000        20
  47.020        29
  47.040        26
  47.060        22
  47.080        32
  47.100        13
  47.120        12
  47.140        25
  47.160        31
  47.180        29
  47.200        25
  47.220        24
  47.240        31
  47.260        30
  47.280        24
  47.300        26
  47.320        26
  47.340        25
  47.360        29
  47.380        30
  47.400        19
  47.420        27
  47.440        27
  47.460        26
  47.480        24
  47.500        18
  47.520        27
  47.540        29
  47.560        21
  47.580        25
  47.600        18
  47.620        21
  47.640        27
  47.660        25
  47.680        16
  47.700        24
  47.720        21
  47.740        22
  47.760        24
  47.780        19
  47.800        22
  47.820        28
  47.840        23
  47.860        14
  47.880        27
  47.900        20
  47.920        19
  47.940        26
  47.960        24
  47.980        23
  48.000        28
  48.020        20
  48.040        20
  48.060        20
  48.080        16
  48.100        24
  48.120        24
  48.140        25
  48.160        27
  48.180        20
  48.200        15
  48.220        35
  48.240        22
  48.260        20
  48.280        23
  48.300        25
  48.320        22
  48.340        20
  48.360        25
  48.380        24
  48.400        19
  48.420        29
  48.440        20
  48.460        26
  48.480        21
  48.500        32
  48.520        15
  48.540        29
  48.560        31
  48.580        22
  48.600        30
  48.620        22
  48.640        34
  48.660        26
  48.680        19
  48.700        21
  48.720        36
  48.740        32
  48.760        29
  48.780        25
  48.800        32
  48.820        29
  48.840        28
  48.860        18
  48.880        25
  48.900        29
  48.920        27
  48.940        27
  48.960        31
  48.980        27
  49.000        28
  49.020        23
  49.040        23
  49.060        39
  49.080        25
  49.100        33
  49.120        33
  49.140        25
  49.160        34
  49.180        40
  49.200        40
  49.220        43
  49.240        44
  49.260        36
  49.280        42
  49.300        33
  49.320        37
  49.340        38
  49.360        43
  49.380        47
  49.400        42
  49.420        40
  49.440        41
  49.460        51
  49.480        53
  49.500        49
  49.520        52
  49.540        41
  49.560        46
  49.580        44
  49.600        56
  49.620        55
  49.640        54
  49.660        46
  49.680        54
  49.700        45
  49.720        45
  49.740        29
  49.760        35
  49.780        44
  49.800        33
  49.820        32
  49.840        29
  49.860        32
  49.880        36
  49.900        24
  49.920        30
  49.940        24
  49.960        16
  49.980        26
  50.000        25
  50.020        32
  50.040        27
  50.060        24
  50.080        31
  50.100        23
  50.120        30
  50.140        24
  50.160        28
  50.180        34
  50.200        21
  50.220        27
  50.240        34
  50.260        30
  50.280        30
  50.300        29
  50.320        17
  50.340        17
  50.360        20
  50.380        37
  50.400        24
  50.420        22
  50.440        35
  50.460        30
  50.480        15
  50.500        40
  50.520        21
  50.540        24
  50.560        32
  50.580        17
  50.600        26
  50.620        28
  50.640        27
  50.660        30
  50.680        26
  50.700        22
  50.720        22
  50.740        25
  50.760        29
  50.780        30
  50.800        32
  50.820        32
  50.840        16
  50.860        27
  50.880        14
  50.900        28
  50.920        28
  50.940        26
  50.960        18
  50.980        19
  51.000        20
  51.020        27
  51.040        25
  51.060        21
  51.080        21
  51.100        22
  51.120        29
  51.140        25
  51.160        29
  51.180        20
  51.200        24
  51.220        22
  51.240        29
  51.260        30
  51.280        21
  51.300        30
  51.320        23
  51.340        22
  51.360        24
  51.380        23
  51.400        23
  51.420        18
  51.440        22
  51.460        29
  51.480        20
  51.500        28
  51.520        20
  51.540        26
  51.560        28
  51.580        29
  51.600        18
  51.620        19
  51.640        30
  51.660        20
  51.680        24
  51.700        26
  51.720        20
  51.740        28
  51.760        26
  51.780        31
  51.800        25
  51.820        22
  51.840        40
  51.860        20
  51.880        22
  51.900        40
  51.920        22
  51.940        32
  51.960        33
  51.980        31
  52.000        27
  52.020        28
  52.040        31
  52.060        28
  52.080        39
  52.100        27
  52.120        29
  52.140        37
  52.160        35
  52.180        47
  52.200        40
  52.220        46
  52.240        52
  52.260        36
  52.280        49
  52.300        45
  52.320        75
  52.340        54
  52.360        62
  52.380        55
  52.400        66
  52.420        67
  52.440        68
  52.460        85
  52.480        86
  52.500       105
  52.520       131
  52.540       173
  52.560       151
  52.580       148
  52.600       181
  52.620       210
  52.640       189
  52.660       172
  52.680       159
  52.700       154
  52.720       128
  52.740       137
  52.760       126
  52.780        95
  52.800       114
  52.820        87
  52.840        91
  52.860        63
  52.880        75
  52.900        61
  52.920        57
  52.940        64
  52.960        56
  52.980        48
  53.000        54
  53.020        44
  53.040        47
  53.060        40
  53.080        46
  53.100        49
  53.120        38
  53.140        39
  53.160        37
  53.180        32
  53.200        29
  53.220        32
  53.240        41
  53.260        29
  53.280        32
  53.300        37
  53.320        22
  53.340        37
  53.360        32
  53.380        30
  53.400        34
  53.420        24
  53.440        30
  53.460        35
  53.480        41
  53.500        44
  53.520        31
  53.540        33
  53.560        25
  53.580        23
  53.600        33
  53.620        42
  53.640        26
  53.660        27
  53.680        39
  53.700        30
  53.720        39
  53.740        28
  53.760        34
  53.780        34
  53.800        33
  53.820        38
  53.840        36
  53.860        39
  53.880        26
  53.900        30
  53.920        37
  53.940        37
  53.960        26
  53.980        23
  54.000        32
  54.020        33
  54.040        31
  54.060        23
  54.080        36
  54.100        43
  54.120        37
  54.140        25
  54.160        29
  54.180        30
  54.200        37
  54.220        29
  54.240        25
  54.260        29
  54.280        26
  54.300        28
  54.320        26
  54.340        39
  54.360        28
  54.380        21
  54.400        28
  54.420        24
  54.440        30
  54.460        25
  54.480        23
  54.500        29
  54.520        33
  54.540        28
  54.560        26
  54.580        32
  54.600        17
  54.620        22
  54.640        29
  54.660        21
  54.680        26
  54.700        22
  54.720        25
  54.740        21
  54.760        26
  54.780        27
  54.800        32
  54.820        25
  54.840        31
  54.860        19
  54.880        26
  54.900        25
  54.920        29
  54.940        34
  54.960        38
  54.980        32
  55.000        24
  55.020        34
  55.040        25
  55.060        27
  55.080        25
  55.100        40
  55.120        24
  55.140        30
  55.160        29
  55.180        28
  55.200        31
  55.220        32
  55.240        33
  55.260        22
  55.280        30
  55.300        24
  55.320        36
  55.340        31
  55.360        34
  55.380        40
  55.400        27
  55.420        34
  55.440        28
  55.460        24
  55.480        25
  55.500        30
  55.520        32
  55.540        30
  55.560        33
  55.580        36
  55.600        25
  55.620        37
  55.640        32
  55.660        34
  55.680        28
  55.700        36
  55.720        33
  55.740        26
  55.760        25
  55.780        29
  55.800        43
  55.820        31
  55.840        40
  55.860        27
  55.880        46
  55.900        38
  55.920        40
  55.940        23
  55.960        48
  55.980        40
  56.000        34
  56.020        29
  56.040        38
  56.060        34
  56.080        45
  56.100        43
  56.120        42
  56.140        47
  56.160        60
  56.180        45
  56.200        42
  56.220        54
  56.240        42
  56.260        44
  56.280        50
  56.300        49
  56.320        45
  56.340        38
  56.360        37
  56.380        41
  56.400        44
  56.420        32
  56.440        38
  56.460        26
  56.480        35
  56.500        35
  56.520        33
  56.540        28
  56.560        34
  56.580        35
  56.600        41
  56.620        36
  56.640        32
  56.660        35
  56.680        32
  56.700        40
  56.720        50
  56.740        32
  56.760        27
  56.780        31
  56.800        49
  56.820        36
  56.840        35
  56.860        40
  56.880        36
  56.900        39
  56.920        40
  56.940        32
  56.960        47
  56.980        56
  57.000        50
  57.020        56
  57.040        61
  57.060        38
  57.080        62
  57.100        59
  57.120        57
  57.140        54
  57.160        55
  57.180        72
  57.200        66
  57.220        59
  57.240        75
  57.260        83
  57.280        88
  57.300        73
  57.320        84
  57.340        92
  57.360        93
  57.380       120
  57.400       140
  57.420       146
  57.440       170
  57.460       211
  57.480       251
  57.500       266
  57.520       329
  57.540       337
  57.560       320
  57.580       328
  57.600       285
  57.620       284
  57.640       263
  57.660       240
  57.680       242
  57.700       236
  57.720       237
  57.740       177
  57.760       189
  57.780       132
  57.800       118
  57.820       131
  57.840       122
  57.860       112
  57.880       113
  57.900       101
  57.920        99
  57.940       110
  57.960       123
  57.980       135
  58.000       112
  58.020       145
  58.040       142
  58.060       154
  58.080       163
  58.100       191
  58.120       238
  58.140       298
  58.160       358
  58.180       410
  58.200       478
  58.220       603
  58.240       728
  58.260       837
  58.280       872
  58.300       815
  58.320       820
  58.340       781
  58.360       722
  58.380       639
  58.400       619
  58.420       625
  58.440       558
  58.460       517
  58.480       504
  58.500       433
  58.520       379
  58.540       313
  58.560       250
  58.580       208
  58.600       194
  58.620       154
  58.640       125
  58.660       112
  58.680       121
  58.700        95
  58.720       101
  58.740        89
  58.760        52
  58.780        62
  58.800        57
  58.820        46
  58.840        58
  58.860        50
  58.880        52
  58.900        41
  58.920        52
  58.940        41
  58.960        38
  58.980        38
  59.000        47
  59.020        28
  59.040        38
  59.060        42
  59.080        29
  59.100        37
  59.120        51
  59.140        33
  59.160        36
  59.180        34
  59.200        33
  59.220        31
  59.240        28
  59.260        26
  59.280        27
  59.300        26
  59.320        27
  59.340        30
  59.360        28
  59.380        33
  59.400        22
  59.420        21
  59.440        41
  59.460        28
  59.480        38
  59.500        25
  59.520        27
  59.540        29
  59.560        31
  59.580        40
  59.600        38
  59.620        27
  59.640        30
  59.660        25
  59.680        40
  59.700        37
  59.720        44
  59.740        35
  59.760        40
  59.780        39
  59.800        42
  59.820        33
  59.840        22
  59.860        34
  59.880        43
  59.900        37
  59.920        32
  59.940        35
  59.960        39
  59.980        29
  60.000        25
  60.020        40
  60.040        32
  60.060        31
  60.080        35
  60.100        45
  60.120        25
  60.140        24
  60.160        27
  60.180        34
  60.200        32
  60.220        23
  60.240        27
  60.260        25
  60.280        22
  60.300        32
  60.320        29
  60.340        20
  60.360        25
  60.380        23
  60.400        23
  60.420        30
  60.440        25
  60.460        26
  60.480        22
  60.500        20
  60.520        31
  60.540        18
  60.560        23
  60.580        28
  60.600        28
  60.620        38
  60.640        26
  60.660        22
  60.680        20
  60.700        28
  60.720        32
  60.740        28
  60.760        19
  60.780        38
  60.800        28
  60.820        29
  60.840        13
  60.860        28
  60.880        35
  60.900        28
  60.920        28
  60.940        36
  60.960        47
  60.980        40
  61.000        30
  61.020        40
  61.040        23
  61.060        37
  61.080        51
  61.100        34
  61.120        35
  61.140        35
  61.160        40
  61.180        42
  61.200        31
  61.220        58
  61.240        41
  61.260        52
  61.280        42
  61.300        45
  61.320        61
  61.340        52
  61.360        51
  61.380        47
  61.400        59
  61.420        51
  61.440        50
  61.460        43
  61.480        48
  61.500        37
  61.520        44
  61.540        44
  61.560        41
  61.580        33
  61.600        45
  61.620        41
  61.640        47
  61.660        45
  61.680        34
  61.700        37
  61.720        30
  61.740        29
  61.760        34
  61.780        39
  61.800        23
  61.820        31
  61.840        41
  61.860        28
  61.880        20
  61.900        33
  61.920        34
  61.940        37
  61.960        17
  61.980        33
  62.000        30
  62.020        34
  62.040        32
  62.060        30
  62.080        31
  62.100        32
  62.120        30
  62.140        41
  62.160        30
  62.180        33
  62.200        34
  62.220        23
  62.240        18
  62.260        30
  62.280        31
  62.300        23
  62.320        34
  62.340        20
  62.360        28
  62.380        26
  62.400        21
  62.420        29
  62.440        28
  62.460        21
  62.480        31
  62.500        29
  62.520        38
  62.540        29
  62.560        26
  62.580        37
  62.600        26
  62.620        18
  62.640        22
  62.660        24
  62.680        28
  62.700        26
  62.720        25
  62.740        19
  62.760        28
  62.780        29
  62.800        28
  62.820        32
  62.840        19
  62.860        31
  62.880        28
  62.900        14
  62.920        31
  62.940        29
  62.960        26
  62.980        29
  63.000        30
  63.020        26
  63.040        29
  63.060        28
  63.080        37
  63.100        19
  63.120        22
  63.140        30
  63.160        37
  63.180        25
  63.200        19
  63.220        22
  63.240        29
  63.260        25
  63.280        37
  63.300        21
  63.320        28
  63.340        30
  63.360        29
  63.380        25
  63.400        37
  63.420        24
  63.440        33
  63.460        26
  63.480        15
  63.500        30
  63.520        35
  63.540        26
  63.560        33
  63.580        30
  63.600        26
  63.620        34
  63.640        34
  63.660        31
  63.680        28
  63.700        33
  63.720        33
  63.740        25
  63.760        20
  63.780        24
  63.800        22
  63.820        26
  63.840        14
  63.860        31
  63.880        17
  63.900        23
  63.920        24
  63.940        29
  63.960        22
  63.980        31
  64.000        20
  64.020        24
  64.040        31
  64.060        20
  64.080        25
  64.100        16
  64.120        22
  64.140        21
  64.160        23
  64.180        15
  64.200        29
  64.220        15
  64.240        25
  64.260        25
  64.280        18
  64.300        24
  64.320        18
  64.340        38
  64.360        20
  64.380        23
  64.400        25
  64.420        24
  64.440        20
  64.460        24
  64.480        19
  64.500        37
  64.520        19
  64.540        19
  64.560        23
  64.580        15
  64.600        20
  64.620        23
  64.640        22
  64.660        24
  64.680        29
  64.700        26
  64.720        24
  64.740        29
  64.760        22
  64.780        29
  64.800        28
  64.820        19
  64.840        25
  64.860        21
  64.880        31
  64.900        30
  64.920        24
  64.940        15
  64.960        36
  64.980        21
  65.000        26
  65.020        22
  65.040        32
  65.060        29
  65.080        31
  65.100        20
  65.120        32
  65.140        21
  65.160        22
  65.180        28
  65.200        22
  65.220        30
  65.240        34
  65.260        36
  65.280        20
  65.300        33
  65.320        25
  65.340        42
  65.360        22
  65.380        20
  65.400        22
  65.420        20
  65.440        19
  65.460        30
  65.480        28
  65.500        21
  65.520        31
  65.540        24
  65.560        26
  65.580        19
  65.600        28
  65.620        26
  65.640        29
  65.660        34
  65.680        30
  65.700        25
  65.720        32
  65.740        27
  65.760        21
  65.780        22
  65.800        28
  65.820        20
  65.840        37
  65.860        31
  65.880        19
  65.900        23
  65.920        29
  65.940        24
  65.960        32
  65.980        41
  66.000        26
  66.020        31
  66.040        32
  66.060        38
  66.080        33
  66.100        45
  66.120        33
  66.140        36
  66.160        34
  66.180        37
  66.200        26
  66.220        38
  66.240        35
  66.260        37
  66.280        43
  66.300        33
  66.320        44
  66.340        51
  66.360        58
  66.380        51
  66.400        56
  66.420        62
  66.440        71
  66.460        70
  66.480        90
  66.500       142
  66.520       112
  66.540       129
  66.560       154
  66.580       125
  66.600       123
  66.620       108
  66.640        96
  66.660        92
  66.680       103
  66.700        93
  66.720        99
  66.740        81
  66.760        72
  66.780        87
  66.800        75
  66.820        67
  66.840        57
  66.860        60
  66.880        40
  66.900        54
  66.920        49
  66.940        45
  66.960        28
  66.980        32
  67.000        34
  67.020        36
  67.040        34
  67.060        21
  67.080        44
  67.100        32
  67.120        18
  67.140        27
  67.160        35
  67.180        27
  67.200        33
  67.220        34
  67.240        35
  67.260        32
  67.280        25
  67.300        31
  67.320        32
  67.340        30
  67.360        16
  67.380        32
  67.400        28
  67.420        26
  67.440        31
  67.460        26
  67.480        20
  67.500        26
  67.520        32
  67.540        31
  67.560        28
  67.580        22
  67.600        31
  67.620        35
  67.640        33
  67.660        31
  67.680        25
  67.700        31
  67.720        26
  67.740        38
  67.760        24
  67.780        41
  67.800        27
  67.820        36
  67.840        28
  67.860        41
  67.880        45
  67.900        49
  67.920        48
  67.940        39
  67.960        42
  67.980        41
  68.000        51
  68.020        50
  68.040        52
  68.060        69
  68.080        70
  68.100        74
  68.120        86
  68.140       109
  68.160       116
  68.180       165
  68.200       169
  68.220       181
  68.240       172
  68.260       183
  68.280       204
  68.300       176
  68.320       166
  68.340       135
  68.360       113
  68.380       120
  68.400       123
  68.420       117
  68.440       112
  68.460       117
  68.480        89
  68.500        87
  68.520       100
  68.540        78
  68.560        65
  68.580        49
  68.600        45
  68.620        51
  68.640        41
  68.660        47
  68.680        43
  68.700        40
  68.720        48
  68.740        37
  68.760        30
  68.780        35
  68.800        29
  68.820        38
  68.840        42
  68.860        32
  68.880        29
  68.900        22
  68.920        36
  68.940        28
  68.960        27
  68.980        25
  69.000        29
  69.020        29
  69.040        25
  69.060        27
  69.080        29
  69.100        29
  69.120        30
  69.140        31
  69.160        34
  69.180        22
  69.200        24
  69.220        21
  69.240        27
  69.260        24
  69.280        19
  69.300        30
  69.320        23
  69.340        28
  69.360        25
  69.380        31
  69.400        23
  69.420        19
  69.440        28
  69.460        32
  69.480        20
  69.500        36
  69.520        28
  69.540        19
  69.560        29
  69.580        32
  69.600        29
  69.620        24
  69.640        26
  69.660        33
  69.680        22
  69.700        30
  69.720        26
  69.740        27
  69.760        26
  69.780        33
  69.800        32
  69.820        22
  69.840        35
  69.860        23
  69.880        29
  69.900        29
  69.920        21
  69.940        17
  69.960        30
  69.980        22
  70.000        23
  70.020        19
  70.040        28
  70.060        24
  70.080        23
  70.100        25
  70.120        21
  70.140        24
  70.160        23
  70.180        26
  70.200        39
  70.220        26
  70.240        31
  70.260        33
  70.280        26
  70.300        23
  70.320        32
  70.340        31
  70.360        35
  70.380        31
  70.400        32
  70.420        35
  70.440        28
  70.460        23
  70.480        35
  70.500        38
  70.520        28
  70.540        41
  70.560        28
  70.580        32
  70.600        24
  70.620        33
  70.640        32
  70.660        37
  70.680        27
  70.700        31
  70.720        28
  70.740        23
  70.760        33
  70.780        36
  70.800        17
  70.820        29
  70.840        31
  70.860        32
  70.880        27
  70.900        29
  70.920        32
  70.940        31
  70.960        28
  70.980        31
  71.000        29
  71.020        34
  71.040        26
  71.060        32
  71.080        37
  71.100        31
  71.120        32
  71.140        28
  71.160        25
  71.180        39
  71.200        23
  71.220        26
  71.240        18
  71.260        32
  71.280        31
  71.300        32
  71.320        29
  71.340        20
  71.360        46
  71.380        39
  71.400        26
  71.420        40
  71.440        29
  71.460        31
  71.480        28
  71.500        27
  71.520        27
  71.540        26
  71.560        31
  71.580        36
  71.600        25
  71.620        31
  71.640        37
  71.660        26
  71.680        29
  71.700        33
  71.720        36
  71.740        27
  71.760        25
  71.780        41
  71.800        35
  71.820        34
  71.840        33
  71.860        36
  71.880        32
  71.900        43
  71.920        35
  71.940        34
  71.960        37
  71.980        57
  72.000        42
  72.020        44
  72.040        38
  72.060        33
  72.080        34
  72.100        40
  72.120        34
  72.140        39
  72.160        28
  72.180        47
  72.200        31
  72.220        41
  72.240        36
  72.260        46
  72.280        40
  72.300        46
  72.320        48
  72.340        41
  72.360        49
  72.380        43
  72.400        41
  72.420        45
  72.440        45
  72.460        43
  72.480        39
  72.500        47
  72.520        60
  72.540        49
  72.560        43
  72.580        52
  72.600        60
  72.620        84
  72.640        64
  72.660        63
  72.680        80
  72.700        97
  72.720        99
  72.740        85
  72.760        97
  72.780       117
  72.800       134
  72.820       147
  72.840       123
  72.860       140
  72.880       164
  72.900       178
  72.920       219
  72.940       227
  72.960       229
  72.980       311
  73.000       306
  73.020       356
  73.040       389
  73.060       498
  73.080       564
  73.100       653
  73.120       811
  73.140       951
  73.160      1128
  73.180      1385
  73.200      1452
  73.220      1566
  73.240      1556
  73.260      1489
  73.280      1321
  73.300      1187
  73.320      1091
  73.340      1045
  73.360      1023
  73.380      1045
  73.400       963
  73.420      1015
  73.440      1005
  73.460       916
  73.480       802
  73.500       676
  73.520       587
  73.540       500
  73.560       430
  73.580       369
  73.600       299
  73.620       283
  73.640       217
  73.660       189
  73.680       161
  73.700       178
  73.720       145
  73.740       150
  73.760       112
  73.780       110
  73.800        99
  73.820        88
  73.840        97
  73.860        80
  73.880        76
  73.900        71
  73.920        56
  73.940        64
  73.960        88
  73.980        54
  74.000        61
  74.020        65
  74.040        58
  74.060        47
  74.080        69
  74.100        38
  74.120        44
  74.140        44
  74.160        48
  74.180        49
  74.200        48
  74.220        51
  74.240        27
  74.260        43
  74.280        52
  74.300        39
  74.320        44
  74.340        51
  74.360        37
  74.380        27
  74.400        50
  74.420        35
  74.440        48
  74.460        32
  74.480        40
  74.500        34
  74.520        28
  74.540        38
  74.560        37
  74.580        18
  74.600        45
  74.620        30
  74.640        27
  74.660        40
  74.680        29
  74.700        36
  74.720        29
  74.740        34
  74.760        23
  74.780        35
  74.800        29
  74.820        28
  74.840        24
  74.860        42
  74.880        34
  74.900        29
  74.920        22
  74.940        18
  74.960        40
  74.980        30
  75.000        20
  75.020        24
  75.040        26
  75.060        27
  75.080        24
  75.100        31
  75.120        29
  75.140        34
  75.160        29
  75.180        26
  75.200        34
  75.220        25
  75.240        22
  75.260        25
  75.280        19
  75.300        36
  75.320        29
  75.340        29
  75.360        22
  75.380        25
  75.400        28
  75.420        30
  75.440        25
  75.460        25
  75.480        35
  75.500        18
  75.520        16
  75.540        34
  75.560        28
  75.580        21
  75.600        25
  75.620        28
  75.640        26
  75.660        28
  75.680        30
  75.700        31
  75.720        30
  75.740        29
  75.760        32
  75.780        22
  75.800        29
  75.820        22
  75.840        28
  75.860        25
  75.880        21
  75.900        22
  75.920        22
  75.940        20
  75.960        29
  75.980        25
  76.000        31
  76.020        23
  76.040        30
  76.060        28
  76.080        18
  76.100        41
  76.120        28
  76.140        25
  76.160        28
  76.180        31
  76.200        32
  76.220        32
  76.240        31
  76.260        33
  76.280        20
  76.300        29
  76.320        31
  76.340        32
  76.360        20
  76.380        25
  76.400        24
  76.420        35
  76.440        20
  76.460        36
  76.480        17
  76.500        25
  76.520        26
  76.540        31
  76.560        33
  76.580        28
  76.600        25
  76.620        29
  76.640        28
  76.660        26
  76.680        35
  76.700        34
  76.720        45
  76.740        33
  76.760        47
  76.780        38
  76.800        60
  76.820        41
  76.840        51
  76.860        67
  76.880        68
  76.900        72
  76.920        70
  76.940        61
  76.960        68
  76.980        76
  77.000        63
  77.020        60
  77.040        34
  77.060        51
  77.080        53
  77.100        63
  77.120        64
  77.140        41
  77.160        43
  77.180        57
  77.200        42
  77.220        48
  77.240        54
  77.260        63
  77.280        66
  77.300        46
  77.320        56
  77.340        38
  77.360        46
  77.380        48
  77.400        38
  77.420        36
  77.440        44
  77.460        47
  77.480        42
  77.500        28
  77.520        35
  77.540        35
  77.560        28
  77.580        46
  77.600        34
  77.620        39
  77.640        37
  77.660        26
  77.680        22
  77.700        32
  77.720        32
  77.740        21
  77.760        31
  77.780        25
  77.800        28
  77.820        29
  77.840        20
  77.860        37
  77.880        31
  77.900        26
  77.920        26
  77.940        28
  77.960        30
  77.980        19
  78.000        27
  78.020        29
  78.040        34
  78.060        26
  78.080        28
  78.100        19
  78.120        24
  78.140        23
  78.160        22
  78.180        25
  78.200        29
  78.220        30
  78.240        31
  78.260        29
  78.280        31
  78.300        27
  78.320        24
  78.340        20
  78.360        24
  78.380        29
  78.400        25
  78.420        22
  78.440        21
  78.460        12
  78.480        29
  78.500        39
  78.520        31
  78.540        29
  78.560        23
  78.580        24
  78.600        22
  78.620        38
  78.640        32
  78.660        32
  78.680        27
  78.700        27
  78.720        20
  78.740        20
  78.760        34
  78.780        26
  78.800        22
  78.820        37
  78.840        28
  78.860        23
  78.880        29
  78.900        35
  78.920        25
  78.940        34
  78.960        29
  78.980        30
  79.000        24
  79.020        24
  79.040        28
  79.060        31
  79.080        22
  79.100        28
  79.120        17
  79.140        29
  79.160        22
  79.180        23
  79.200        28
  79.220        28
  79.240        23
  79.260        20
  79.280        29
  79.300        21
  79.320        14
  79.340        24
  79.360        20
  79.380        31
  79.400        18
  79.420        29
  79.440        24
  79.460        27
  79.480        24
  79.500        21
  79.520        22
  79.540        21
  79.560        16
  79.580        25
  79.600        22
  79.620        24
  79.640        17
  79.660        35
  79.680        19
  79.700        32
  79.720        19
  79.740        24
  79.760        20
  79.780        31
  79.800        29
  79.820        18
  79.840        26
  79.860        33
  79.880        27
  79.900        25
  79.920        24
  79.940        27
  79.960        35
  79.980        31
  80.000        26
  80.020        22
  80.040        27
  80.060        23
  80.080        23
  80.100        17
  80.120        22
  80.140        26
  80.160        25
  80.180        18
  80.200        21
  80.220        18
  80.240        23
  80.260        26
  80.280        23
  80.300        27
  80.320        22
  80.340        24
  80.360        24
  80.380        31
  80.400        38
  80.420        28
  80.440        25
  80.460        35
  80.480        40
  80.500        29
  80.520        31
  80.540        35
  80.560        31
  80.580        28
  80.600        30
  80.620        34
  80.640        30
  80.660        32
  80.680        31
  80.700        36
  80.720        49
  80.740        47
  80.760        40
  80.780        44
  80.800        42
  80.820        38
  80.840        38
  80.860        45
  80.880        35
  80.900        33
  80.920        39
  80.940        28
  80.960        35
  80.980        34
  81.000        44
  81.020        35
  81.040        33
  81.060        34
  81.080        29
  81.100        28
  81.120        22
  81.140        28
  81.160        32
  81.180        18
  81.200        24
  81.220        24
  81.240        21
  81.260        26
  81.280        28
  81.300        21
  81.320        21
  81.340        33
  81.360        25
  81.380        23
  81.400        26
  81.420        32
  81.440        24
  81.460        27
  81.480        22
  81.500        25
  81.520        17
  81.540        22
  81.560        24
  81.580        17
  81.600        14
  81.620        19
  81.640        24
  81.660        35
  81.680        16
  81.700        28
  81.720        22
  81.740        33
  81.760        21
  81.780        18
  81.800        33
  81.820        29
  81.840        20
  81.860        22
  81.880        32
  81.900        20
  81.920        33
  81.940        20
  81.960        23
  81.980        26
  82.000        21
  82.020        27
  82.040        21
  82.060        23
  82.080        19
  82.100        27
  82.120        20
  82.140        30
  82.160        20
  82.180        19
  82.200        20
  82.220        37
  82.240        26
  82.260        21
  82.280        29
  82.300        28
  82.320        26
  82.340        12
  82.360        19
  82.380        30
  82.400        23
  82.420        37
  82.440        24
  82.460        25
  82.480        21
  82.500        24
  82.520        27
  82.540        20
  82.560        22
  82.580        28
  82.600        28
  82.620        21
  82.640        22
  82.660        27
  82.680        17
  82.700        30
  82.720        18
  82.740        24
  82.760        20
  82.780        28
  82.800        24
  82.820        23
  82.840        31
  82.860        20
  82.880        26
  82.900        34
  82.920        25
  82.940        32
  82.960        28
  82.980        31
  83.000        34
  83.020        24
  83.040        16
  83.060        22
  83.080        18
  83.100        23
  83.120        36
  83.140        26
  83.160        28
  83.180        25
  83.200        22
  83.220        32
  83.240        34
  83.260        31
  83.280        36
  83.300        38
  83.320        31
  83.340        28
  83.360        28
  83.380        25
  83.400        34
  83.420        44
  83.440        35
  83.460        31
  83.480        35
  83.500        23
  83.520        27
  83.540        25
  83.560        29
  83.580        27
  83.600        20
  83.620        29
  83.640        27
  83.660        27
  83.680        28
  83.700        27
  83.720        33
  83.740        30
  83.760        31
  83.780        29
  83.800        28
  83.820        33
  83.840        25
  83.860        26
  83.880        22
  83.900        19
  83.920        18
  83.940        28
  83.960        32
  83.980        30
  84.000        29
  84.020        42
  84.040        26
  84.060        23
  84.080        26
  84.100        22
  84.120        34
  84.140        29
  84.160        24
  84.180        26
  84.200        28
  84.220        34
  84.240        32
  84.260        22
  84.280        22
  84.300        36
  84.320        40
  84.340        48
  84.360        41
  84.380        31
  84.400        28
  84.420        42
  84.440        44
  84.460        35
  84.480        37
  84.500        29
  84.520        29
  84.540        40
  84.560        21
  84.580        28
  84.600        31
  84.620        32
  84.640        29
  84.660        25
  84.680        31
  84.700        28
  84.720        36
  84.740        36
  84.760        31
  84.780        28
  84.800        20
  84.820        35
  84.840        30
  84.860        31
  84.880        22
  84.900        28
  84.920        31
  84.940        25
  84.960        23
  84.980        29
  85.000        32
  85.020        19
  85.040        27
  85.060        25
  85.080        24
  85.100        33
  85.120        25
  85.140        29
  85.160        31
  85.180        25
  85.200        28
  85.220        20
  85.240        33
  85.260        28
  85.280        39
  85.300        19
  85.320        29
  85.340        32
  85.360        24
  85.380        37
  85.400        29
  85.420        35
  85.440        25
  85.460        27
  85.480        26
  85.500        27
  85.520        24
  85.540        25
  85.560        25
  85.580        33
  85.600        25
  85.620        24
  85.640        25
  85.660        28
  85.680        36
  85.700        22
  85.720        26
  85.740        33
  85.760        28
  85.780        32
  85.800        40
  85.820        22
  85.840        24
  85.860        36
  85.880        29
  85.900        31
  85.920        37
  85.940        28
  85.960        30
  85.980        32
  86.000        35
  86.020        27
  86.040        24
  86.060        30
  86.080        27
  86.100        40
  86.120        42
  86.140        41
  86.160        42
  86.180        33
  86.200        42
  86.220        32
  86.240        41
  86.260        39
  86.280        41
  86.300        39
  86.320        43
  86.340        59
  86.360        41
  86.380        60
  86.400        55
  86.420        52
  86.440        69
  86.460        54
  86.480        51
  86.500        57
  86.520        63
  86.540        76
  86.560        61
  86.580        82
  86.600        87
  86.620        64
  86.640        72
  86.660        64
  86.680        77
  86.700        87
  86.720        82
  86.740        86
  86.760       104
  86.780       119
  86.800       125
  86.820       119
  86.840       132
  86.860       166
  86.880       182
  86.900       229
  86.920       262
  86.940       282
  86.960       334
  86.980       374
  87.000       422
  87.020       424
  87.040       484
  87.060       441
  87.080       440
  87.100       442
  87.120       384
  87.140       319
  87.160       313
  87.180       266
  87.200       263
  87.220       255
  87.240       283
  87.260       311
  87.280       268
  87.300       275
  87.320       276
  87.340       274
  87.360       258
  87.380       202
  87.400       188
  87.420       163
  87.440       146
  87.460       128
  87.480       114
  87.500        78
  87.520        86
  87.540        89
  87.560        77
  87.580        68
  87.600        50
  87.620        52
  87.640        57
  87.660        63
  87.680        49
  87.700        54
  87.720        43
  87.740        46
  87.760        32
  87.780        44
  87.800        39
  87.820        36
  87.840        33
  87.860        40
  87.880        41
  87.900        47
  87.920        41
  87.940        31
  87.960        34
  87.980        33
  88.000        41
  88.020        21
  88.040        34
  88.060        25
  88.080        22
  88.100        34
  88.120        27
  88.140        39
  88.160        26
  88.180        22
  88.200        26
  88.220        23
  88.240        27
  88.260        30
  88.280        25
  88.300        22
  88.320        37
  88.340        23
  88.360        30
  88.380        16
  88.400        21
  88.420        23
  88.440        32
  88.460        23
  88.480        30
  88.500        30
  88.520        20
  88.540        21
  88.560        20
  88.580        29
  88.600        21
  88.620        32
  88.640        32
  88.660        20
  88.680        25
  88.700        29
  88.720        23
  88.740        24
  88.760        20
  88.780        34
  88.800        27
  88.820        23
  88.840        22
  88.860        25
  88.880        40
  88.900        19
  88.920        36
  88.940        39
  88.960        39
  88.980        28
  89.000        31
  89.020        37
  89.040        46
  89.060        28
  89.080        22
  89.100        35
  89.120        40
  89.140        33
  89.160        43
  89.180        37
  89.200        30
  89.220        24
  89.240        30
  89.260        37
  89.280        33
  89.300        27
  89.320        34
  89.340        42
  89.360        25
  89.380        33
  89.400        22
  89.420        32
  89.440        39
  89.460        26
  89.480        23
  89.500        32
  89.520        27
  89.540        24
  89.560        23
  89.580        30
  89.600        18
  89.620        23
  89.640        30
  89.660        33
  89.680        32
  89.700        24
  89.720        32
  89.740        26
  89.760        34
  89.780        30
  89.800        24
  89.820        25
  89.840        24
  89.860        21
  89.880        31
  89.900        23
  89.920        26
  89.940        28
  89.960        35
  89.980        31
  90.000        18
  90.020        24
  90.040        15
  90.060        28
  90.080        24
  90.100        15
  90.120        14
  90.140        20
  90.160        22
  90.180        26
  90.200        23
  90.220        14
  90.240        24
  90.260        23
  90.280        28
  90.300        16
  90.320        25
  90.340        18
  90.360        22
  90.380        25
  90.400        17
  90.420        21
  90.440        24
  90.460        20
  90.480        22
  90.500        19
  90.520        24
  90.540        26
  90.560        17
  90.580        19
  90.600        25
  90.620        17
  90.640        25
  90.660        39
  90.680        35
  90.700        22
  90.720        22
  90.740        33
  90.760        28
  90.780        20
  90.800        30
  90.820        23
  90.840        25
  90.860        23
  90.880        28
  90.900        20
  90.920        27
  90.940        25
  90.960        32
  90.980        26
  91.000        31
  91.020        32
  91.040        35
  91.060        35
  91.080        27
  91.100        32
  91.120        28
  91.140        25
  91.160        41
  91.180        39
  91.200        43
  91.220        53
  91.240        36
  91.260        26
  91.280        30
  91.300        45
  91.320        34
  91.340        31
  91.360        29
  91.380        27
  91.400        26
  91.420        34
  91.440        38
  91.460        35
  91.480        34
  91.500        32
  91.520        40
  91.540        26
  91.560        26
  91.580        41
  91.600        25
  91.620        30
  91.640        31
  91.660        26
  91.680        23
  91.700        28
  91.720        16
  91.740        27
  91.760        19
  91.780        25
  91.800        23
  91.820        26
  91.840        27
  91.860        29
  91.880        24
  91.900        18
  91.920        18
  91.940        16
  91.960        20
  91.980        18
  92.000        27
  92.020        28
  92.040        16
  92.060        27
  92.080        27
  92.100        17
  92.120        28
  92.140        21
  92.160        20
  92.180        15
  92.200        29
  92.220        19
  92.240        29
  92.260        18
  92.280        20
  92.300        20
  92.320        18
  92.340        23
  92.360        18
  92.380        20
  92.400        20
  92.420        20
  92.440        23
  92.460        23
  92.480        29
  92.500        15
  92.520        20
  92.540        20
  92.560        26
  92.580        14
  92.600        24
  92.620        23
  92.640        17
  92.660        16
  92.680        21
  92.700        21
  92.720        24
  92.740        18
  92.760        28
  92.780        22
  92.800        19
  92.820        18
  92.840        30
  92.860        28
  92.880        22
  92.900        20
  92.920        23
  92.940        23
  92.960        16
  92.980        18
  93.000        28
  93.020        20
  93.040        31
  93.060        30
  93.080        23
  93.100        16
  93.120        26
  93.140        27
  93.160        21
  93.180        16
  93.200        22
  93.220        29
  93.240        16
  93.260        34
  93.280        28
  93.300        22
  93.320        23
  93.340        24
  93.360        27
  93.380        21
  93.400        24
  93.420        27
  93.440        23
  93.460        22
  93.480        19
  93.500        25
  93.520        15
  93.540        21
  93.560        15
  93.580        15
  93.600        21
  93.620        24
  93.640        13
  93.660        32
  93.680        27
  93.700        33
  93.720        17
  93.740        26
  93.760        28
  93.780        22
  93.800        24
  93.820        21
  93.840        18
  93.860        16
  93.880        21
  93.900        19
  93.920        24
  93.940        32
  93.960        24
  93.980        15
  94.000        23
  94.020        21
  94.040        22
  94.060        23
  94.080        23
  94.100        21
  94.120        20
  94.140        18
  94.160        20
  94.180        12
  94.200        21
  94.220        21
  94.240        25
  94.260        26
  94.280        30
  94.300        34
  94.320        20
  94.340        21
  94.360        27
  94.380        20
  94.400        25
  94.420        22
  94.440        18
  94.460        30
  94.480        20
  94.500        19
  94.520        30
  94.540        23
  94.560        30
  94.580        29
  94.600        18
  94.620        22
  94.640        27
  94.660        31
  94.680        23
  94.700        30
  94.720        26
  94.740        34
  94.760        27
  94.780        25
  94.800        27
  94.820        23
  94.840        31
  94.860        30
  94.880        27
  94.900        35
  94.920        28
  94.940        36
  94.960        40
  94.980        27
  95.000        35
  95.020        28
  95.040        31
  95.060        42
  95.080        24
  95.100        43
  95.120        28
  95.140        40
  95.160        35
  95.180        47
  95.200        56
  95.220        55
  95.240        46
  95.260        62
  95.280        59
  95.300        52
  95.320        51
  95.340        59
  95.360        50
  95.380        56
  95.400        42
  95.420        46
  95.440        53
  95.460        48
  95.480        35
  95.500        38
  95.520        47
  95.540        47
  95.560        50
  95.580        41
  95.600        37
  95.620        45
  95.640        44
  95.660        36
  95.680        40
  95.700        32
  95.720        31
  95.740        24
  95.760        28
  95.780        30
  95.800        30
  95.820        28
  95.840        24
  95.860        21
  95.880        27
  95.900        24
  95.920        28
  95.940        29
  95.960        21
  95.980        18
  96.000        21
  96.020        30
  96.040        26
  96.060        21
  96.080        28
  96.100        22
  96.120        27
  96.140        28
  96.160        22
  96.180        18
  96.200        37
  96.220        22
  96.240        23
  96.260        32
  96.280        24
  96.300        28
  96.320        22
  96.340        25
  96.360        24
  96.380        22
  96.400        19
  96.420        36
  96.440        30
  96.460        21
  96.480        16
  96.500        25
  96.520        26
  96.540        29
  96.560        28
  96.580        19
  96.600        22
  96.620        20
  96.640        25
  96.660        26
  96.680        11
  96.700        27
  96.720        24
  96.740        26
  96.760        26
  96.780        13
  96.800        27
  96.820        25
  96.840        17
  96.860        24
  96.880        36
  96.900        16
  96.920        16
  96.940        18
  96.960        30
  96.980        28
  97.000        22
  97.020        16
  97.040        30
  97.060        30
  97.080        22
  97.100        16
  97.120        19
  97.140        20
  97.160        18
  97.180        21
  97.200        21
  97.220        22
  97.240        18
  97.260        27
  97.280        31
  97.300        29
  97.320        26
  97.340        28
  97.360        31
  97.380        25
  97.400        13
  97.420        26
  97.440        24
  97.460        32
  97.480        30
  97.500        23
  97.520        30
  97.540        32
  97.560        15
  97.580        28
  97.600        34
  97.620        28
  97.640        17
  97.660        30
  97.680        15
  97.700        29
  97.720        26
  97.740        28
  97.760        31
  97.780        27
  97.800        24
  97.820        33
  97.840        22
  97.860        24
  97.880        31
  97.900        33
  97.920        19
  97.940        22
  97.960        29
  97.980        24
  98.000        25
  98.020        33
  98.040        18
  98.060        31
  98.080        19
  98.100        22
  98.120        27
  98.140        13
  98.160        27
  98.180        26
  98.200        36
  98.220        30
  98.240        32
  98.260        21
  98.280        31
  98.300        26
  98.320        25
  98.340        26
  98.360        30
  98.380        29
  98.400        30
  98.420        34
  98.440        36
  98.460        32
  98.480        29
  98.500        21
  98.520        31
  98.540        26
  98.560        35
  98.580        17
  98.600        30
  98.620        29
  98.640        29
  98.660        31
  98.680        30
  98.700        35
  98.720        28
  98.740        31
  98.760        31
  98.780        33
  98.800        34
  98.820        32
  98.840        27
  98.860        23
  98.880        25
  98.900        28
  98.920        24
  98.940        21
  98.960        30
  98.980        28
  99.000        28
  99.020        37
  99.040        25
  99.060        34
  99.080        33
  99.100        24
  99.120        30
  99.140        28
  99.160        19
  99.180        27
  99.200        31
  99.220        27
  99.240        26
  99.260        31
  99.280        39
  99.300        27
  99.320        16
  99.340        25
  99.360        20
  99.380        27
  99.400        23
  99.420        30
  99.440        25
  99.460        21
  99.480        29
  99.500        29
  99.520        31
  99.540        38
  99.560        25
  99.580        31
  99.600        39
  99.620        25
  99.640        48
  99.660        27
  99.680        31
  99.700        36
  99.720        34
  99.740        37
  99.760        34
  99.780        39
  99.800        45
  99.820        36
  99.840        28
  99.860        41
  99.880        50
  99.900        38
  99.920        49
  99.940        58
  99.960        48
  99.980        45
 100.000        47
